OOIBase32 Version 2.0.2.2 Data File
++++++++++++++++++++++++++++++++++++
Date: Monday, July 15, 2019, 09:21:07
User: Valued Ocean Optics Customer
Spectrometer Serial Number: I2J306
Spectrometer Channel: Master
Integration Time (msec): 100
Spectra Averaged: 3
Boxcar Smoothing: 5
Correct for Electrical Dark: Disabled
Time Normalized: Disabled
Dual-beam Reference: Disabled
Reference Channel: Master
Temperature: Not acquired
Spectrometer Type: S2000
ADC Type: ADC1000
Number of Pixels in File: 2048
Graph Title: 
>>>>>Begin Spectral Data<<<<<
332.72	
333.10	
333.48	51.667
333.86	52.667
334.24	52.333
334.61	55.333
334.99	53.000
335.37	51.667
335.75	53.000
336.13	57.000
336.51	55.000
336.89	56.333
337.26	58.667
337.64	55.333
338.02	55.333
338.40	58.333
338.78	57.000
339.16	60.333
339.53	56.667
339.91	69.333
340.29	59.667
340.67	59.576
341.05	59.667
341.42	59.515
341.80	59.636
342.18	58.939
342.56	59.394
342.94	59.273
343.31	59.121
343.69	59.121
344.07	59.545
344.45	59.394
344.82	59.303
345.20	59.485
345.58	59.636
345.96	59.939
346.33	59.545
346.71	58.909
347.09	58.879
347.46	59.061
347.84	59.091
348.22	58.970
348.60	58.788
348.97	58.727
349.35	58.515
349.73	58.333
350.10	58.152
350.48	58.091
350.86	58.273
351.23	58.333
351.61	58.000
351.99	58.121
352.36	58.000
352.74	58.091
353.12	57.879
353.49	57.909
353.87	58.061
354.25	58.000
354.62	58.364
355.00	58.091
355.37	58.061
355.75	58.121
356.13	57.970
356.50	57.818
356.88	57.848
357.25	58.030
357.63	58.091
358.01	58.000
358.38	57.939
358.76	57.636
359.13	57.909
359.51	57.970
359.88	58.030
360.26	58.455
360.64	58.455
361.01	58.424
361.39	58.515
361.76	58.576
362.14	58.727
362.51	58.788
362.89	58.788
363.26	58.818
363.64	59.000
364.01	58.939
364.39	58.606
364.76	58.727
365.14	58.879
365.51	58.697
365.89	58.515
366.26	58.242
366.64	58.394
367.01	58.152
367.39	58.303
367.76	58.212
368.14	58.242
368.51	57.970
368.88	58.121
369.26	57.879
369.63	58.091
370.01	58.364
370.38	58.364
370.76	58.303
371.13	58.636
371.50	58.424
371.88	58.152
372.25	58.424
372.63	58.576
373.00	58.606
373.37	58.727
373.75	58.697
374.12	58.697
374.50	58.909
374.87	58.758
375.24	58.939
375.62	58.970
375.99	59.212
376.36	59.061
376.74	59.515
377.11	59.485
377.48	59.485
377.86	59.606
378.23	59.515
378.60	59.212
378.98	59.364
379.35	59.152
379.72	58.848
380.10	58.788
380.47	58.727
380.84	58.576
381.22	58.727
381.59	59.061
381.96	58.879
382.33	58.485
382.71	58.606
383.08	58.606
383.45	58.697
383.82	59.121
384.20	59.364
384.57	59.545
384.94	59.576
385.31	59.636
385.69	59.455
386.06	60.121
386.43	60.333
386.80	60.545
387.18	60.303
387.55	60.121
387.92	60.970
388.29	60.667
388.66	60.515
389.04	60.333
389.41	60.152
389.78	59.939
390.15	59.545
390.52	59.606
390.90	59.636
391.27	59.818
391.64	59.848
392.01	58.909
392.38	59.121
392.75	59.061
393.12	59.091
393.50	59.121
393.87	59.152
394.24	58.818
394.61	59.091
394.98	59.152
395.35	59.182
395.72	59.303
396.09	59.182
396.46	59.030
396.84	59.152
397.21	59.364
397.58	59.455
397.95	59.545
398.32	61.758
398.69	62.333
399.06	62.394
399.43	62.576
399.80	62.788
400.17	63.121
400.54	63.515
400.91	63.818
401.28	63.727
401.65	63.818
402.02	64.061
402.39	62.152
402.76	61.727
403.13	61.788
403.50	61.879
403.87	62.000
404.24	62.121
404.61	62.152
404.98	62.515
405.35	63.152
405.72	63.667
406.09	64.030
406.46	64.152
406.83	64.303
407.20	64.697
407.57	65.000
407.94	65.152
408.31	65.333
408.68	65.909
409.05	66.152
409.42	66.333
409.79	66.394
410.16	66.606
410.53	67.606
410.90	68.212
411.26	68.667
411.63	69.364
412.00	70.182
412.37	70.879
412.74	71.121
413.11	71.636
413.48	72.333
413.85	73.273
414.22	74.091
414.58	74.848
414.95	76.212
415.32	77.485
415.69	78.788
416.06	80.121
416.43	81.758
416.80	83.515
417.16	84.970
417.53	86.485
417.90	87.879
418.27	89.939
418.64	92.152
419.00	93.970
419.37	95.576
419.74	97.606
420.11	99.970
420.48	101.970
420.84	104.394
421.21	107.455
421.58	110.455
421.95	113.636
422.32	116.970
422.68	119.939
423.05	123.424
423.42	127.879
423.79	132.091
424.15	136.303
424.52	141.455
424.89	146.576
425.25	151.273
425.62	157.121
425.99	163.121
426.36	168.879
426.72	175.939
427.09	183.000
427.46	190.091
427.82	197.970
428.19	206.303
428.56	214.879
428.93	223.758
429.29	233.970
429.66	243.848
430.03	254.909
430.39	266.939
430.76	278.879
431.13	291.515
431.49	304.545
431.86	317.576
432.22	332.151
432.59	346.394
432.96	363.030
433.32	379.545
433.69	397.879
434.06	414.455
434.42	431.424
434.79	448.212
435.15	465.273
435.52	482.849
435.89	501.364
436.25	519.485
436.62	538.394
436.98	557.182
437.35	576.303
437.71	594.424
438.08	615.273
438.45	636.849
438.81	659.697
439.18	681.727
439.54	703.939
439.91	725.667
440.27	747.515
440.64	768.515
441.00	789.515
441.37	809.727
441.73	830.727
442.10	851.636
442.46	871.242
442.83	891.515
443.19	912.758
443.56	933.606
443.92	953.667
444.29	974.182
444.65	995.333
445.02	1015.879
445.38	1033.909
445.75	1051.667
446.11	1069.515
446.48	1087.939
446.84	1104.030
447.21	1119.485
447.57	1134.545
447.93	1149.151
448.30	1163.606
448.66	1175.030
449.03	1186.212
449.39	1198.000
449.76	1209.424
450.12	1218.636
450.48	1225.485
450.85	1230.243
451.21	1232.879
451.58	1235.788
451.94	1236.212
452.30	1234.697
452.67	1234.818
453.03	1231.242
453.39	1226.000
453.76	1217.273
454.12	1205.788
454.48	1193.636
454.85	1180.364
455.21	1167.242
455.57	1152.849
455.94	1139.242
456.30	1122.303
456.66	1102.788
457.03	1084.000
457.39	1064.970
457.75	1044.424
458.12	1025.576
458.48	1006.030
458.84	987.424
459.21	967.939
459.57	947.212
459.93	925.758
460.29	905.576
460.66	886.242
461.02	866.303
461.38	847.485
461.74	829.394
462.11	811.667
462.47	793.394
462.83	775.939
463.19	758.515
463.56	741.758
463.92	724.636
464.28	707.485
464.64	691.727
465.01	675.788
465.37	659.364
465.73	645.182
466.09	629.515
466.45	614.364
466.82	599.606
467.18	585.394
467.54	570.727
467.90	557.636
468.26	545.182
468.62	531.455
468.99	517.970
469.35	506.576
469.71	494.182
470.07	482.273
470.43	472.000
470.79	460.242
471.15	448.939
471.52	438.091
471.88	427.182
472.24	416.151
472.60	405.970
472.96	396.303
473.32	386.485
473.68	377.030
474.04	368.788
474.40	360.000
474.77	351.970
475.13	344.091
475.49	336.152
475.85	328.727
476.21	321.909
476.57	315.061
476.93	308.727
477.29	302.485
477.65	296.152
478.01	289.606
478.37	283.697
478.73	277.909
479.09	272.424
479.45	267.242
479.81	262.212
480.17	257.364
480.53	252.848
480.89	248.152
481.25	243.576
481.61	239.333
481.97	235.121
482.33	230.848
482.69	227.242
483.05	223.667
483.41	220.121
483.77	216.061
484.13	212.545
484.49	209.182
484.85	206.364
485.21	203.242
485.57	200.061
485.93	196.848
486.29	193.727
486.65	190.697
487.01	187.727
487.37	184.636
487.72	182.242
488.08	179.242
488.44	176.242
488.80	172.879
489.16	170.000
489.52	167.636
489.88	165.121
490.24	162.758
490.60	160.000
490.95	157.667
491.31	155.364
491.67	152.667
492.03	150.364
492.39	148.030
492.75	145.970
493.11	143.545
493.46	141.091
493.82	139.091
494.18	136.758
494.54	135.000
494.90	132.848
495.26	130.667
495.61	128.879
495.97	126.758
496.33	124.667
496.69	122.849
497.05	121.121
497.40	119.333
497.76	117.394
498.12	115.788
498.48	113.939
498.84	112.424
499.19	110.788
499.55	109.152
499.91	107.848
500.27	106.879
500.62	105.697
500.98	104.303
501.34	103.061
501.69	102.030
502.05	101.091
502.41	100.152
502.77	98.606
503.12	97.758
503.48	96.879
503.84	95.879
504.19	94.727
504.55	93.606
504.91	92.576
505.27	91.636
505.62	90.848
505.98	90.030
506.34	89.030
506.69	88.394
507.05	87.485
507.41	86.697
507.76	86.182
508.12	85.424
508.47	84.424
508.83	83.758
509.19	83.242
509.54	82.364
509.90	81.697
510.26	80.879
510.61	80.364
510.97	80.061
511.32	79.636
511.68	79.000
512.04	78.455
512.39	78.394
512.75	78.545
513.10	78.061
513.46	77.818
513.82	77.182
514.17	76.970
514.53	76.606
514.88	75.818
515.24	75.242
515.59	74.818
515.95	74.909
516.30	74.636
516.66	74.030
517.01	73.727
517.37	73.455
517.72	73.364
518.08	73.061
518.44	72.727
518.79	72.697
519.15	72.788
519.50	72.727
519.85	72.212
520.21	71.939
520.56	71.697
520.92	71.394
521.27	71.091
521.63	70.970
521.98	70.909
522.34	70.727
522.69	70.545
523.05	70.333
523.40	70.061
523.76	70.000
524.11	69.788
524.46	69.636
524.82	69.424
525.17	69.303
525.53	69.091
525.88	71.061
526.24	71.333
526.59	71.182
526.94	71.091
527.30	71.303
527.65	71.364
528.00	71.485
528.36	71.667
528.71	72.121
529.07	72.242
529.42	72.364
529.77	70.394
530.13	70.212
530.48	70.455
530.83	70.485
531.19	70.273
531.54	70.394
531.89	70.394
532.25	70.182
532.60	70.242
532.95	70.424
533.31	70.606
533.66	70.606
534.01	70.939
534.37	71.182
534.72	71.182
535.07	71.515
535.42	71.364
535.78	71.455
536.13	71.606
536.48	71.515
536.83	71.242
537.19	71.212
537.54	71.485
537.89	71.333
538.24	71.515
538.60	72.030
538.95	72.394
539.30	73.152
539.65	73.939
540.01	74.576
540.36	75.091
540.71	76.182
541.06	76.545
541.41	77.121
541.77	78.242
542.12	78.545
542.47	78.788
542.82	79.000
543.17	79.818
543.53	81.303
543.88	83.758
544.23	86.121
544.58	87.364
544.93	88.758
545.28	89.455
545.63	89.606
545.99	90.333
546.34	91.000
546.69	91.364
547.04	90.848
547.39	89.576
547.74	87.788
548.09	86.030
548.44	85.212
548.80	84.606
549.15	84.455
549.50	84.667
549.85	84.727
550.20	85.000
550.55	85.485
550.90	86.182
551.25	86.818
551.60	87.273
551.95	87.970
552.30	88.697
552.65	89.424
553.00	94.606
553.35	97.485
553.71	98.364
554.06	98.970
554.41	99.636
554.76	100.788
555.11	101.879
555.46	102.758
555.81	103.545
556.16	104.364
556.51	105.303
556.86	101.879
557.21	100.727
557.56	101.848
557.91	103.394
558.26	105.061
558.61	106.545
558.95	107.606
559.30	109.152
559.65	110.818
560.00	112.424
560.35	114.061
560.70	115.455
561.05	117.394
561.40	118.848
561.75	120.515
562.10	122.242
562.45	123.939
562.80	125.818
563.15	127.697
563.50	129.545
563.84	131.667
564.19	133.939
564.54	136.485
564.89	138.485
565.24	141.152
565.59	143.818
565.94	146.152
566.29	148.576
566.64	151.606
566.98	154.727
567.33	157.667
567.68	160.576
568.03	163.212
568.38	166.152
568.73	169.545
569.07	172.848
569.42	175.697
569.77	179.242
570.12	182.667
570.47	186.030
570.81	189.364
571.16	193.424
571.51	197.333
571.86	201.909
572.21	206.667
572.55	210.848
572.90	215.061
573.25	219.606
573.60	224.424
573.95	229.455
574.29	234.697
574.64	240.061
574.99	245.788
575.34	252.061
575.68	257.849
576.03	264.091
576.38	270.273
576.72	277.364
577.07	284.424
577.42	291.333
577.77	298.576
578.11	306.182
578.46	314.151
578.81	321.606
579.15	328.515
579.50	336.636
579.85	344.424
580.19	352.849
580.54	360.758
580.89	369.909
581.23	378.970
581.58	387.667
581.93	396.788
582.27	406.061
582.62	415.273
582.97	425.727
583.31	435.606
583.66	446.151
584.01	457.030
584.35	468.242
584.70	479.152
585.04	490.333
585.39	502.212
585.74	514.182
586.08	526.697
586.43	539.879
586.77	552.849
587.12	565.606
587.47	578.788
587.81	592.000
588.16	605.667
588.50	619.242
588.85	633.151
589.19	647.455
589.54	662.273
589.88	676.758
590.23	691.455
590.58	706.394
590.92	722.061
591.27	737.909
591.61	754.424
591.96	770.333
592.30	786.849
592.65	803.394
592.99	819.879
593.34	836.848
593.68	854.364
594.03	872.091
594.37	888.909
594.72	906.697
595.06	924.394
595.41	942.333
595.75	960.061
596.09	978.545
596.44	997.182
596.78	1015.788
597.13	1034.000
597.47	1052.970
597.82	1071.879
598.16	1091.788
598.51	1110.000
598.85	1129.182
599.19	1148.394
599.54	1169.545
599.88	1189.849
600.23	1210.788
600.57	1231.606
600.91	1253.091
601.26	1273.636
601.60	1294.303
601.95	1316.697
602.29	1339.515
602.63	1362.121
602.98	1383.970
603.32	1406.788
603.66	1429.909
604.01	1451.091
604.35	1474.000
604.69	1497.485
605.04	1521.061
605.38	1545.121
605.72	1567.909
606.07	1592.152
606.41	1615.879
606.75	1640.485
607.10	1663.515
607.44	1687.303
607.78	1712.818
608.13	1737.242
608.47	1761.000
608.81	1785.667
609.15	1810.879
609.50	1834.727
609.84	1859.121
610.18	1883.000
610.52	1906.151
610.87	1930.151
611.21	1954.182
611.55	1977.788
611.89	2000.636
612.24	2023.424
612.58	2047.000
612.92	2069.121
613.26	2092.212
613.61	2115.121
613.95	2141.242
614.29	2165.939
614.63	2190.303
614.97	2215.152
615.32	2239.394
615.66	2264.152
616.00	2289.515
616.34	2313.061
616.68	2337.788
617.02	2363.636
617.37	2388.151
617.71	2410.970
618.05	2436.000
618.39	2460.424
618.73	2484.788
619.07	2508.667
619.42	2533.242
619.76	2557.121
620.10	2581.667
620.44	2605.970
620.78	2630.606
621.12	2654.727
621.46	2678.303
621.80	2699.152
622.14	2722.212
622.49	2742.909
622.83	2764.788
623.17	2785.879
623.51	2807.030
623.85	2827.212
624.19	2847.909
624.53	2866.939
624.87	2885.333
625.21	2904.515
625.55	2925.757
625.89	2944.939
626.23	2965.091
626.57	2984.727
626.91	3005.636
627.25	3024.667
627.59	3043.879
627.93	3064.424
628.27	3083.182
628.61	3102.545
628.95	3121.909
629.29	3140.394
629.63	3157.242
629.97	3173.030
630.31	3189.667
630.65	3207.212
630.99	3224.576
631.33	3242.849
631.67	3257.697
632.01	3272.273
632.35	3287.212
632.69	3300.303
633.03	3314.636
633.37	3329.273
633.71	3346.939
634.05	3361.152
634.39	3373.000
634.73	3383.818
635.07	3394.000
635.41	3406.333
635.75	3419.576
636.09	3431.121
636.42	3442.454
636.76	3454.879
637.10	3464.697
637.44	3470.758
637.78	3481.000
638.12	3491.394
638.46	3502.031
638.80	3510.455
639.13	3519.000
639.47	3526.697
639.81	3534.000
640.15	3541.909
640.49	3544.758
640.83	3550.728
641.17	3558.940
641.50	3563.212
641.84	3567.788
642.18	3571.000
642.52	3578.727
642.86	3582.758
643.19	3587.121
643.53	3590.424
643.87	3591.818
644.21	3595.697
644.55	3599.212
644.88	3598.121
645.22	3600.273
645.56	3598.091
645.90	3597.788
646.23	3595.394
646.57	3593.394
646.91	3590.879
647.25	3590.576
647.59	3587.879
647.92	3584.545
648.26	3579.818
648.60	3578.818
648.93	3572.576
649.27	3569.364
649.61	3565.940
649.95	3558.848
650.28	3551.000
650.62	3542.515
650.96	3532.909
651.29	3526.606
651.63	3518.424
651.97	3511.667
652.30	3503.969
652.64	3497.455
652.98	3490.848
653.31	3483.121
653.65	3476.636
653.99	3470.788
654.32	3464.455
654.66	3457.909
655.00	3447.545
655.33	3436.939
655.67	3426.212
656.01	3411.455
656.34	3399.758
656.68	3385.333
657.01	3370.394
657.35	3354.697
657.69	3335.333
658.02	3320.061
658.36	3305.242
658.69	3291.939
659.03	3279.818
659.37	3265.727
659.70	3251.606
660.04	3234.879
660.37	3219.061
660.71	3204.545
661.04	3188.576
661.38	3174.485
661.72	3158.424
662.05	3142.424
662.39	3125.545
662.72	3108.182
663.06	3090.697
663.39	3076.273
663.73	3062.060
664.06	3047.182
664.40	3031.667
664.73	3014.000
665.07	2996.940
665.40	2979.333
665.74	2959.970
666.07	2942.273
666.41	2923.545
666.74	2903.909
667.08	2883.485
667.41	2862.364
667.75	2842.788
668.08	2821.879
668.41	2803.727
668.75	2786.485
669.08	2767.939
669.42	2748.879
669.75	2729.848
670.09	2711.151
670.42	2693.970
670.76	2677.091
671.09	2660.909
671.42	2643.758
671.76	2626.879
672.09	2609.818
672.43	2593.273
672.76	2575.182
673.09	2558.545
673.43	2542.091
673.76	2525.970
674.09	2509.939
674.43	2491.606
674.76	2475.091
675.10	2456.818
675.43	2439.303
675.76	2424.061
676.10	2407.000
676.43	2391.364
676.76	2376.545
677.10	2359.394
677.43	2342.545
677.76	2325.727
678.10	2310.152
678.43	2292.546
678.76	2277.576
679.09	2263.727
679.43	2245.818
679.76	2228.939
680.09	2212.697
680.43	2195.303
680.76	2179.212
681.09	2164.061
681.42	2148.182
681.76	2133.061
682.09	2117.848
682.42	2102.000
682.75	2085.273
683.09	2070.364
683.42	2055.606
683.75	2041.000
684.08	2027.606
684.42	2012.758
684.75	1997.788
685.08	1982.849
685.41	1967.667
685.74	1950.970
686.08	1935.879
686.41	1920.485
686.74	1906.242
687.07	1891.061
687.40	1876.000
687.74	1859.818
688.07	1845.424
688.40	1830.243
688.73	1815.970
689.06	1801.151
689.39	1789.000
689.73	1774.606
690.06	1760.576
690.39	1747.030
690.72	1733.667
691.05	1719.546
691.38	1705.758
691.71	1692.333
692.04	1679.606
692.38	1665.667
692.71	1653.909
693.04	1640.545
693.37	1626.576
693.70	1613.485
694.03	1600.576
694.36	1587.333
694.69	1574.394
695.02	1562.970
695.35	1550.758
695.68	1537.939
696.02	1525.818
696.35	1512.182
696.68	1500.000
697.01	1488.970
697.34	1476.273
697.67	1464.212
698.00	1452.182
698.33	1441.151
698.66	1428.727
698.99	1416.273
699.32	1403.758
699.65	1392.212
699.98	1380.788
700.31	1370.788
700.64	1360.485
700.97	1350.394
701.30	1338.970
701.63	1327.303
701.96	1315.030
702.29	1303.667
702.62	1293.242
702.95	1282.939
703.28	1272.061
703.61	1260.727
703.94	1247.333
704.26	1234.849
704.59	1222.424
704.92	1210.061
705.25	1199.697
705.58	1189.364
705.91	1178.576
706.24	1167.121
706.57	1155.121
706.90	1143.970
707.23	1133.697
707.56	1123.000
707.89	1112.515
708.21	1102.455
708.54	1092.758
708.87	1082.303
709.20	1072.121
709.53	1061.364
709.86	1050.485
710.19	1040.273
710.51	1030.545
710.84	1020.576
711.17	1011.758
711.50	1002.182
711.83	993.121
712.16	984.303
712.48	974.727
712.81	965.000
713.14	955.455
713.47	947.091
713.80	939.212
714.13	930.182
714.45	920.273
714.78	911.030
715.11	901.424
715.44	891.818
715.76	882.182
716.09	873.030
716.42	864.273
716.75	856.606
717.08	847.242
717.40	837.424
717.73	827.576
718.06	819.242
718.38	809.545
718.71	801.182
719.04	791.758
719.37	783.485
719.69	775.121
720.02	766.333
720.35	757.667
720.68	749.515
721.00	741.849
721.33	733.970
721.66	726.061
721.98	718.879
722.31	710.212
722.64	703.939
722.96	695.788
723.29	688.455
723.62	680.818
723.94	672.333
724.27	664.879
724.60	657.364
724.92	649.667
725.25	642.515
725.58	635.000
725.90	628.091
726.23	620.152
726.55	612.576
726.88	605.424
727.21	598.606
727.53	591.970
727.86	585.455
728.18	578.485
728.51	572.455
728.84	565.909
729.16	559.727
729.49	553.121
729.81	546.909
730.14	540.667
730.46	533.727
730.79	527.758
731.12	522.182
731.44	516.091
731.77	511.576
732.09	505.667
732.42	499.606
732.74	493.212
733.07	487.546
733.39	481.758
733.72	476.485
734.04	471.424
734.37	466.454
734.69	461.151
735.02	456.030
735.34	450.303
735.67	445.212
735.99	439.939
736.32	435.152
736.64	430.455
736.97	425.091
737.29	420.576
737.62	415.515
737.94	409.970
738.27	404.849
738.59	399.818
738.91	395.061
739.24	390.242
739.56	385.697
739.89	380.939
740.21	376.546
740.54	373.030
740.86	368.727
741.18	365.212
741.51	361.182
741.83	356.606
742.16	352.455
742.48	348.242
742.80	344.212
743.13	340.394
743.45	337.333
743.77	334.121
744.10	330.485
744.42	326.970
744.75	323.182
745.07	320.030
745.39	317.030
745.72	313.455
746.04	310.303
746.36	307.242
746.69	304.242
747.01	301.182
747.33	298.485
747.66	295.424
747.98	292.545
748.30	289.697
748.62	286.424
748.95	283.545
749.27	281.061
749.59	278.091
749.92	275.545
750.24	272.576
750.56	269.606
750.88	266.636
751.21	263.667
751.53	261.212
751.85	258.879
752.17	256.909
752.50	254.212
752.82	251.606
753.14	249.303
753.46	246.788
753.79	244.303
754.11	241.636
754.43	239.091
754.75	237.333
755.07	234.545
755.40	232.424
755.72	230.182
756.04	228.303
756.36	226.182
756.68	224.061
757.01	221.697
757.33	219.697
757.65	218.212
757.97	216.606
758.29	214.212
758.61	212.364
758.94	209.848
759.26	207.606
759.58	205.576
759.90	203.636
760.22	201.697
760.54	199.909
760.86	197.970
761.18	195.606
761.51	193.970
761.83	192.121
762.15	190.333
762.47	189.030
762.79	187.212
763.11	185.394
763.43	183.697
763.75	181.788
764.07	180.303
764.39	178.727
764.71	177.758
765.03	175.515
765.35	174.273
765.68	172.970
766.00	171.606
766.32	170.212
766.64	168.818
766.96	167.273
767.28	166.091
767.60	164.545
767.92	163.364
768.24	161.727
768.56	160.485
768.88	158.970
769.20	157.727
769.52	155.939
769.84	154.818
770.16	153.818
770.48	152.667
770.80	151.636
771.12	150.515
771.44	149.455
771.76	148.303
772.07	147.485
772.39	146.485
772.71	145.152
773.03	144.303
773.35	143.182
773.67	142.030
773.99	141.303
774.31	140.061
774.63	138.848
774.95	137.848
775.27	136.848
775.59	135.758
775.91	134.848
776.22	133.879
776.54	132.576
776.86	131.394
777.18	130.091
777.50	128.727
777.82	128.182
778.14	127.636
778.46	126.485
778.77	125.606
779.09	124.545
779.41	123.636
779.73	122.758
780.05	122.212
780.37	121.727
780.68	121.000
781.00	120.455
781.32	119.212
781.64	118.121
781.96	117.212
782.28	116.576
782.59	116.000
782.91	115.182
783.23	114.727
783.55	114.152
783.86	113.333
784.18	112.848
784.50	112.061
784.82	111.485
785.14	111.061
785.45	110.848
785.77	110.273
786.09	109.606
786.40	109.515
786.72	108.970
787.04	108.576
787.36	108.000
787.67	107.364
787.99	107.000
788.31	107.182
788.63	107.061
788.94	106.545
789.26	106.121
789.58	106.091
789.89	105.152
790.21	104.242
790.53	103.758
790.84	103.576
791.16	103.333
791.48	103.121
791.79	102.242
792.11	101.667
792.43	101.303
792.74	100.818
793.06	99.697
793.38	99.455
793.69	99.424
794.01	99.000
794.32	98.515
794.64	98.333
794.96	98.030
795.27	97.515
795.59	97.121
795.91	96.848
796.22	96.333
796.54	96.333
796.85	96.000
797.17	95.788
797.48	95.394
797.80	95.121
798.12	94.939
798.43	94.455
798.75	94.182
799.06	93.545
799.38	93.152
799.69	92.939
800.01	92.667
800.32	92.182
800.64	91.606
800.95	91.242
801.27	90.788
801.58	90.152
801.90	89.788
802.21	89.515
802.53	89.303
802.84	88.727
803.16	88.333
803.47	88.030
803.79	87.879
804.10	87.606
804.42	86.909
804.73	86.333
805.05	85.788
805.36	85.697
805.68	85.212
805.99	85.091
806.31	85.152
806.62	84.970
806.93	84.455
807.25	83.879
807.56	83.697
807.88	83.879
808.19	83.909
808.51	83.879
808.82	83.212
809.13	83.242
809.45	82.697
809.76	81.818
810.08	81.545
810.39	81.212
810.70	81.000
811.02	80.788
811.33	80.424
811.64	80.000
811.96	79.455
812.27	79.636
812.58	79.061
812.90	78.758
813.21	79.121
813.53	78.606
813.84	78.394
814.15	78.182
814.46	77.394
814.78	77.030
815.09	76.667
815.40	76.394
815.72	76.121
816.03	75.909
816.34	75.667
816.66	75.212
816.97	75.121
817.28	75.000
817.59	75.091
817.91	75.273
818.22	75.061
818.53	75.000
818.84	75.000
819.16	74.515
819.47	74.394
819.78	74.485
820.09	74.303
820.41	74.121
820.72	73.909
821.03	73.606
821.34	73.182
821.66	73.091
821.97	72.909
822.28	72.636
822.59	72.242
822.90	71.939
823.22	71.545
823.53	71.364
823.84	71.576
824.15	71.394
824.46	71.121
824.77	71.121
825.09	70.697
825.40	70.606
825.71	70.576
826.02	70.606
826.33	70.455
826.64	70.485
826.95	70.242
827.27	69.788
827.58	69.758
827.89	69.606
828.20	69.606
828.51	69.788
828.82	69.515
829.13	69.515
829.44	69.212
829.75	69.182
830.06	68.909
830.38	68.818
830.69	68.576
831.00	68.303
831.31	68.303
831.62	68.061
831.93	67.606
832.24	67.636
832.55	67.576
832.86	67.909
833.17	67.818
833.48	67.848
833.79	67.727
834.10	67.970
834.41	68.152
834.72	67.970
835.03	68.121
835.34	68.182
835.65	68.152
835.96	67.879
836.27	67.455
836.58	67.333
836.89	66.818
837.20	66.939
837.51	66.606
837.82	66.424
838.13	66.394
838.44	66.242
838.75	66.182
839.06	66.000
839.37	65.818
839.68	65.970
839.99	65.970
840.30	65.939
840.60	65.758
840.91	65.576
841.22	65.303
841.53	65.030
841.84	65.000
842.15	65.061
842.46	65.364
842.77	65.455
843.08	65.303
843.39	65.242
843.69	65.667
844.00	66.152
844.31	66.394
844.62	66.576
844.93	66.576
845.24	66.606
845.55	66.667
845.85	66.242
846.16	66.061
846.47	65.970
846.78	65.697
847.09	65.273
847.40	64.636
847.70	64.485
848.01	64.303
848.32	64.515
848.63	64.485
848.94	64.606
849.24	64.758
849.55	64.788
849.86	64.909
850.17	65.121
850.47	65.394
850.78	65.364
851.09	65.515
851.40	65.485
851.71	65.182
852.01	65.121
852.32	65.061
852.63	65.091
852.93	65.394
853.24	65.273
853.55	65.364
853.86	65.333
854.16	65.273
854.47	65.273
854.78	65.606
855.08	65.939
855.39	65.758
855.70	65.667
856.01	65.455
856.31	64.970
856.62	65.242
856.93	65.061
857.23	65.061
857.54	65.333
857.85	65.424
858.15	65.515
858.46	65.455
858.77	65.879
859.07	66.000
859.38	66.061
859.68	66.242
859.99	66.364
860.30	66.545
860.60	66.545
860.91	66.788
861.22	66.606
861.52	66.424
861.83	66.424
862.13	66.242
862.44	66.242
862.74	66.515
863.05	66.848
863.36	66.455
863.66	66.424
863.97	66.424
864.27	66.303
864.58	66.515
864.88	66.667
865.19	66.818
865.49	66.606
865.80	66.636
866.11	66.848
866.41	66.939
866.72	67.303
867.02	67.455
867.33	67.333
867.63	67.152
867.94	66.848
868.24	66.909
868.55	66.727
868.85	66.909
869.16	66.909
869.46	66.939
869.77	66.667
870.07	66.455
870.37	66.576
870.68	66.848
870.98	67.424
871.29	67.848
871.59	67.939
871.90	68.182
872.20	68.242
872.51	68.364
872.81	68.242
873.11	68.515
873.42	68.818
873.72	68.848
874.03	69.152
874.33	69.061
874.63	69.061
874.94	68.939
875.24	69.091
875.55	69.152
875.85	69.182
876.15	69.333
876.46	69.394
876.76	69.576
877.06	69.545
877.37	69.545
877.67	69.121
877.98	68.848
878.28	69.091
878.58	69.152
878.89	69.364
879.19	69.667
879.49	69.697
879.80	69.909
880.10	69.879
880.40	70.242
880.70	70.242
881.01	70.576
881.31	71.000
881.61	71.061
881.92	71.030
882.22	70.909
882.52	70.545
882.82	70.424
883.13	70.273
883.43	70.273
883.73	70.333
884.03	70.697
884.34	70.788
884.64	70.545
884.94	70.424
885.24	70.394
885.55	70.606
885.85	70.576
886.15	71.000
886.45	70.848
886.76	70.667
887.06	70.273
887.36	69.848
887.66	69.879
887.96	70.061
888.26	70.000
888.57	70.121
888.87	69.727
889.17	69.818
889.47	69.394
889.77	69.576
890.08	69.576
890.38	69.455
890.68	69.394
890.98	69.303
891.28	69.030
891.58	69.030
891.88	68.939
892.18	69.061
892.49	69.000
892.79	69.091
893.09	68.879
893.39	68.636
893.69	68.727
893.99	68.788
894.29	68.758
894.59	69.030
894.89	69.091
895.19	69.242
895.50	69.273
895.80	69.455
896.10	69.242
896.40	69.303
896.70	69.606
897.00	69.818
897.30	69.879
897.60	69.909
897.90	69.939
898.20	70.030
898.50	70.030
898.80	70.242
899.10	70.394
899.40	70.515
899.70	70.515
900.00	70.364
900.30	70.121
900.60	69.939
900.90	69.879
901.20	69.788
901.50	69.545
901.80	69.333
902.10	69.212
902.40	69.091
902.70	68.848
903.00	68.788
903.30	68.697
903.60	68.758
903.90	68.879
904.20	68.788
904.49	68.606
904.79	68.636
905.09	68.727
905.39	68.970
905.69	68.788
905.99	69.091
906.29	69.061
906.59	69.273
906.89	69.333
907.19	69.273
907.48	69.333
907.78	69.394
908.08	69.242
908.38	69.182
908.68	68.970
908.98	68.758
909.28	68.455
909.58	68.424
909.87	68.242
910.17	67.909
910.47	67.848
910.77	67.727
911.07	67.455
911.37	67.303
911.66	67.121
911.96	67.000
912.26	67.030
912.56	67.182
912.86	67.152
913.15	67.152
913.45	67.333
913.75	67.273
914.05	67.061
914.34	67.182
914.64	67.242
914.94	67.364
915.24	67.212
915.54	66.909
915.83	66.697
916.13	66.970
916.43	66.818
916.73	66.515
917.02	66.424
917.32	66.606
917.62	66.727
917.91	66.970
918.21	67.000
918.51	66.818
918.81	66.909
919.10	66.848
919.40	66.242
919.70	66.061
919.99	66.212
920.29	66.242
920.59	65.909
920.88	65.455
921.18	65.152
921.48	65.364
921.77	65.212
922.07	65.303
922.37	65.515
922.66	65.545
922.96	65.545
923.26	65.182
923.55	65.091
923.85	65.152
924.14	65.121
924.44	65.061
924.74	64.424
925.03	64.242
925.33	63.939
925.62	63.818
925.92	64.030
926.22	64.152
926.51	64.182
926.81	63.818
927.10	63.667
927.40	63.727
927.69	63.394
927.99	63.212
928.29	63.424
928.58	63.606
928.88	63.273
929.17	63.091
929.47	62.758
929.76	62.818
930.06	62.879
930.35	62.939
930.65	62.939
930.94	63.000
931.24	62.788
931.53	62.606
931.83	62.545
932.12	62.303
932.42	62.121
932.71	62.182
933.01	61.970
933.30	61.788
933.60	61.667
933.89	61.545
934.19	61.606
934.48	61.606
934.77	61.303
935.07	61.152
935.36	61.273
935.66	61.303
935.95	61.455
936.25	61.576
936.54	63.667
936.83	63.939
937.13	63.848
937.42	63.576
937.72	63.727
938.01	64.121
938.30	63.970
938.60	63.939
938.89	63.697
939.19	63.576
939.48	63.667
939.77	61.424
940.07	60.970
940.36	61.061
940.65	61.091
940.95	60.848
941.24	60.667
941.53	60.879
941.83	60.697
942.12	60.576
942.41	60.667
942.71	60.515
943.00	60.485
943.29	60.697
943.59	60.545
943.88	60.667
944.17	61.030
944.47	61.182
944.76	61.030
945.05	60.970
945.34	60.909
945.64	60.879
945.93	60.939
946.22	61.303
946.51	61.273
946.81	61.212
947.10	61.333
947.39	61.091
947.68	60.970
947.98	61.212
948.27	61.212
948.56	61.485
948.85	61.212
949.15	61.515
949.44	61.273
949.73	61.091
950.02	60.970
950.31	60.848
950.61	60.879
950.90	60.727
951.19	60.303
951.48	60.303
951.77	60.182
952.06	60.242
952.36	59.758
952.65	59.758
952.94	59.818
953.23	60.000
953.52	59.818
953.81	59.576
954.11	59.485
954.40	59.424
954.69	59.455
954.98	59.515
955.27	59.242
955.56	59.242
955.85	59.545
956.14	59.485
956.43	59.333
956.73	59.394
957.02	59.273
957.31	59.091
957.60	59.152
957.89	59.182
958.18	59.061
958.47	58.909
958.76	58.818
959.05	58.576
959.34	58.697
959.63	58.576
959.92	58.303
960.21	58.303
960.50	58.333
960.79	58.364
961.08	58.303
961.37	58.182
961.66	58.394
961.95	58.636
962.24	58.455
962.53	58.576
962.82	58.485
963.11	58.606
963.40	58.879
963.69	58.909
963.98	58.636
964.27	58.636
964.56	58.758
964.85	58.879
965.14	58.697
965.43	58.879
965.72	58.667
966.01	58.697
966.30	58.788
966.59	58.697
966.88	58.909
967.17	59.212
967.46	59.394
967.75	59.273
968.03	59.152
968.32	59.091
968.61	58.939
968.90	58.848
969.19	58.970
969.48	58.909
969.77	58.848
970.06	58.758
970.35	58.788
970.63	58.788
970.92	58.848
971.21	58.697
971.50	58.667
971.79	58.606
972.08	58.242
972.37	58.273
972.65	58.424
972.94	58.545
973.23	58.394
973.52	58.091
973.81	57.909
974.09	57.848
974.38	58.000
974.67	58.121
974.96	58.121
975.25	58.636
975.53	58.485
975.82	58.333
976.11	58.121
976.40	58.061
976.69	58.030
976.97	58.000
977.26	57.788
977.55	57.848
977.84	57.788
978.12	57.697
978.41	57.455
978.70	57.394
978.99	57.333
979.27	57.333
979.56	57.424
979.85	57.485
980.13	57.606
980.42	57.970
980.71	57.879
980.99	57.788
981.28	57.758
981.57	57.697
981.86	57.788
982.14	57.848
982.43	58.152
982.72	58.121
983.00	58.333
983.29	57.879
983.58	57.758
983.86	57.939
984.15	57.970
984.43	58.152
984.72	58.394
985.01	58.758
985.29	58.697
985.58	58.424
985.87	58.242
986.15	58.242
986.44	58.636
986.72	58.697
987.01	58.636
987.30	58.636
987.58	58.455
987.87	58.152
988.15	57.909
988.44	57.788
988.72	58.000
989.01	58.212
989.30	58.242
989.58	58.303
989.87	58.152
990.15	57.939
990.44	57.909
990.72	57.909
991.01	58.000
991.29	58.242
991.58	58.485
991.86	58.273
992.15	58.273
992.43	57.788
992.72	57.909
993.00	58.061
993.29	58.121
993.57	58.030
993.86	58.061
994.14	58.455
994.43	58.000
994.71	58.000
995.00	58.121
995.28	58.182
995.57	58.394
995.85	58.273
996.14	58.030
996.42	58.091
996.70	58.212
996.99	58.485
997.27	57.879
997.56	57.818
997.84	57.667
998.13	57.424
998.41	57.667
998.69	57.788
998.98	57.515
999.26	57.576
999.55	57.788
999.83	57.697
1000.11	57.152
1000.40	57.152
1000.68	57.091
1000.96	57.121
1001.25	57.424
1001.53	57.242
1001.81	57.242
1002.10	57.576
1002.38	57.667
1002.67	57.303
1002.95	57.182
1003.23	57.424
1003.51	57.727
1003.80	57.970
1004.08	57.848
1004.36	57.879
1004.65	58.121
1004.93	58.242
1005.21	57.970
1005.50	57.909
1005.78	57.879
1006.06	58.091
1006.34	58.242
1006.63	58.303
1006.91	58.303
1007.19	58.424
1007.48	58.152
1007.76	57.576
1008.04	57.485
1008.32	58.000
1008.60	57.667
1008.89	56.667
1009.17	55.000
1009.45	58.000
>>>>>End Spectral Data<<<<<
